file FFTd=BaFe2P2_AngleSweep_40.dat
Selected B range, Bmin=6.040 T Bmax=8.000 T
Subtracted Poly order =5
Padding =8
F[T]	Amp
 0.00000000000000E+0000	 0.00000000000000E+0000
 2.49103655133928E+0000	 1.12033032571644E-0005
 4.98207310267857E+0000	 1.47360198941929E-0005
 7.47310965401785E+0000	 2.05181863761862E-0005
 9.96414620535714E+0000	 2.85529929403726E-0005
 1.24551827566964E+0001	 3.88825001708225E-0005
 1.49462193080357E+0001	 5.15455273235609E-0005
 1.74372558593750E+0001	 6.65572576410999E-0005
 1.99282924107143E+0001	 8.38960953766959E-0005
 2.24193289620536E+0001	 1.03492385421329E-0004
 2.49103655133928E+0001	 1.25218603882110E-0004
 2.74014020647321E+0001	 1.48881869476724E-0004
 2.98924386160714E+0001	 1.74219731992470E-0004
 3.23834751674107E+0001	 2.00900019509532E-0004
 3.48745117187500E+0001	 2.28525278797792E-0004
 3.73655482700893E+0001	 2.56642072852698E-0004
 3.98565848214286E+0001	 2.84755122940614E-0004
 4.23476213727678E+0001	 3.12346010627917E-0004
 4.48386579241071E+0001	 3.38895895826247E-0004
 4.73296944754464E+0001	 3.63911462374141E-0004
 4.98207310267857E+0001	 3.86953066825781E-0004
 5.23117675781250E+0001	 4.07663820183675E-0004
 5.48028041294643E+0001	 4.25798042111363E-0004
 5.72938406808035E+0001	 4.41247143586213E-0004
 5.97848772321428E+0001	 4.54060463047791E-0004
 6.22759137834821E+0001	 4.64457875086020E-0004
 6.47669503348214E+0001	 4.72830175600616E-0004
 6.72579868861607E+0001	 4.79722595440284E-0004
 6.97490234375000E+0001	 4.85796908133353E-0004
 7.22400599888393E+0001	 4.91769411186020E-0004
 7.47310965401785E+0001	 4.98326474738925E-0004
 7.72221330915178E+0001	 5.06026322466409E-0004
 7.97131696428571E+0001	 5.15203191544322E-0004
 8.22042061941964E+0001	 5.25894017635604E-0004
 8.46952427455357E+0001	 5.37804659600830E-0004
 8.71862792968750E+0001	 5.50322490566865E-0004
 8.96773158482142E+0001	 5.62569675179800E-0004
 9.21683523995535E+0001	 5.73482745735613E-0004
 9.46593889508928E+0001	 5.81902206585725E-0004
 9.71504255022321E+0001	 5.86659478660131E-0004
 9.96414620535714E+0001	 5.86654083372946E-0004
 1.02132498604910E+0002	 5.80918783645235E-0004
 1.04623535156250E+0002	 5.68673437509700E-0004
 1.07114571707589E+0002	 5.49369901519261E-0004
 1.09605608258928E+0002	 5.22731352058232E-0004
 1.12096644810267E+0002	 4.88791006364953E-0004
 1.14587681361607E+0002	 4.47939056417120E-0004
 1.17078717912946E+0002	 4.00995986198128E-0004
 1.19569754464285E+0002	 3.49353433944122E-0004
 1.22060791015625E+0002	 2.95280660533038E-0004
 1.24551827566964E+0002	 2.42624105833665E-0004
 1.27042864118303E+0002	 1.98263726129366E-0004
 1.29533900669643E+0002	 1.73541449008370E-0004
 1.32024937220982E+0002	 1.79127507457080E-0004
 1.34515973772321E+0002	 2.12409592482273E-0004
 1.37007010323661E+0002	 2.61173387982828E-0004
 1.39498046875000E+0002	 3.15537945003968E-0004
 1.41989083426339E+0002	 3.69791541401462E-0004
 1.44480119977679E+0002	 4.20648126409256E-0004
 1.46971156529018E+0002	 4.66103233706064E-0004
 1.49462193080357E+0002	 5.04926415470127E-0004
 1.51953229631696E+0002	 5.36448099586363E-0004
 1.54444266183036E+0002	 5.60466776733173E-0004
 1.56935302734375E+0002	 5.77201690839368E-0004
 1.59426339285714E+0002	 5.87257256936852E-0004
 1.61917375837053E+0002	 5.91581408591035E-0004
 1.64408412388393E+0002	 5.91406091403127E-0004
 1.66899448939732E+0002	 5.88160768772172E-0004
 1.69390485491071E+0002	 5.83353027445656E-0004
 1.71881522042411E+0002	 5.78417393960435E-0004
 1.74372558593750E+0002	 5.74546043030631E-0004
 1.76863595145089E+0002	 5.72530661484224E-0004
 1.79354631696428E+0002	 5.72654680614924E-0004
 1.81845668247768E+0002	 5.74668863364610E-0004
 1.84336704799107E+0002	 5.77858808911153E-0004
 1.86827741350446E+0002	 5.81182652945562E-0004
 1.89318777901786E+0002	 5.83438858291816E-0004
 1.91809814453125E+0002	 5.83425277749326E-0004
 1.94300851004464E+0002	 5.80065223673074E-0004
 1.96791887555803E+0002	 5.72492609024053E-0004
 1.99282924107143E+0002	 5.60099192622361E-0004
 2.01773960658482E+0002	 5.42551594013382E-0004
 2.04264997209821E+0002	 5.19786207166637E-0004
 2.06756033761161E+0002	 4.91988819983442E-0004
 2.09247070312500E+0002	 4.59564108771359E-0004
 2.11738106863839E+0002	 4.23098833570037E-0004
 2.14229143415178E+0002	 3.83321635938754E-0004
 2.16720179966518E+0002	 3.41061775834035E-0004
 2.19211216517857E+0002	 2.97208864351864E-0004
 2.21702253069196E+0002	 2.52675669702945E-0004
 2.24193289620536E+0002	 2.08366662411360E-0004
 2.26684326171875E+0002	 1.65157210479416E-0004
 2.29175362723214E+0002	 1.23896740045458E-0004
 2.31666399274553E+0002	 8.54866527920521E-0005
 2.34157435825893E+0002	 5.13116264824813E-0005
 2.36648472377232E+0002	 2.63427922155595E-0005
 2.39139508928571E+0002	 2.85737697444996E-0005
 2.41630545479911E+0002	 4.84172692664107E-0005
 2.44121582031250E+0002	 6.84668872371857E-0005
 2.46612618582589E+0002	 8.57677947390442E-0005
 2.49103655133928E+0002	 9.98666787795563E-0005
 2.51594691685268E+0002	 1.10813906339948E-0004
 2.54085728236607E+0002	 1.18837210540717E-0004
 2.56576764787946E+0002	 1.24248568984865E-0004
 2.59067801339286E+0002	 1.27401920542398E-0004
 2.61558837890625E+0002	 1.28666735335028E-0004
 2.64049874441964E+0002	 1.28408804902609E-0004
 2.66540910993303E+0002	 1.26975879124104E-0004
 2.69031947544643E+0002	 1.24687458832366E-0004
 2.71522984095982E+0002	 1.21828397618084E-0004
 2.74014020647321E+0002	 1.18645834844701E-0004
 2.76505057198661E+0002	 1.15348691001762E-0004
 2.78996093750000E+0002	 1.12108696724481E-0004
 2.81487130301339E+0002	 1.09061854358791E-0004
 2.83978166852678E+0002	 1.06309455225438E-0004
 2.86469203404018E+0002	 1.03918307896893E-0004
 2.88960239955357E+0002	 1.01920540321425E-0004
 2.91451276506696E+0002	 1.00313955351345E-0004
 2.93942313058036E+0002	 9.90641479591683E-0005
 2.96433349609375E+0002	 9.81092756370788E-0005
 2.98924386160714E+0002	 9.73676210566082E-0005
 3.01415422712053E+0002	 9.67472364687551E-0005
 3.03906459263393E+0002	 9.61563767134604E-0005
 3.06397495814732E+0002	 9.55132929590772E-0005
 3.08888532366071E+0002	 9.47542140345864E-0005
 3.11379568917411E+0002	 9.38387911348115E-0005
 3.13870605468750E+0002	 9.27527337249572E-0005
 3.16361642020089E+0002	 9.15077104741442E-0005
 3.18852678571428E+0002	 9.01388026692083E-0005
 3.21343715122768E+0002	 8.86999013930753E-0005
 3.23834751674107E+0002	 8.72574750187059E-0005
 3.26325788225446E+0002	 8.58831455417143E-0005
 3.28816824776786E+0002	 8.46455441923433E-0005
 3.31307861328125E+0002	 8.36019998440066E-0005
 3.33798897879464E+0002	 8.27907476633208E-0005
 3.36289934430803E+0002	 8.22244793938197E-0005
 3.38780970982143E+0002	 8.18860951297259E-0005
 3.41272007533482E+0002	 8.17273674836364E-0005
 3.43763044084821E+0002	 8.16708745757157E-0005
 3.46254080636161E+0002	 8.16150879521855E-0005
 3.48745117187500E+0002	 8.14420686402443E-0005
 3.51236153738839E+0002	 8.10269531145599E-0005
 3.53727190290178E+0002	 8.02483322200908E-0005
 3.56218226841518E+0002	 7.89986884164208E-0005
 3.58709263392857E+0002	 7.71941825271814E-0005
 3.61200299944196E+0002	 7.47832164370568E-0005
 3.63691336495536E+0002	 7.17533262978708E-0005
 3.66182373046875E+0002	 6.81360888098493E-0005
 3.68673409598214E+0002	 6.40098582315953E-0005
 3.71164446149553E+0002	 5.95002764259620E-0005
 3.73655482700893E+0002	 5.47785377994123E-0005
 3.76146519252232E+0002	 5.00571633868319E-0005
 3.78637555803571E+0002	 4.55822120486548E-0005
 3.81128592354911E+0002	 4.16191115162441E-0005
 3.83619628906250E+0002	 3.84272596902003E-0005
 3.86110665457589E+0002	 3.62199100298832E-0005
 3.88601702008928E+0002	 3.51170013464140E-0005
 3.91092738560268E+0002	 3.51165394764990E-0005
 3.93583775111607E+0002	 3.61097336572879E-0005
 3.96074811662946E+0002	 3.79314896657551E-0005
 3.98565848214286E+0002	 4.04086885831239E-0005
 4.01056884765625E+0002	 4.33798175669214E-0005
 4.03547921316964E+0002	 4.66883342744796E-0005
 4.06038957868303E+0002	 5.01661061032925E-0005
 4.08529994419643E+0002	 5.36206188411992E-0005
 4.11021030970982E+0002	 5.68318593979913E-0005
 4.13512067522321E+0002	 5.95587752436059E-0005
 4.16003104073661E+0002	 6.15524231107875E-0005
 4.18494140625000E+0002	 6.25724462843714E-0005
 4.20985177176339E+0002	 6.24041143487219E-0005
 4.23476213727678E+0002	 6.08739793436168E-0005
 4.25967250279018E+0002	 5.78628976291116E-0005
 4.28458286830357E+0002	 5.33157005795081E-0005
 4.30949323381696E+0002	 4.72472872290900E-0005
 4.33440359933036E+0002	 3.97456582713365E-0005
 4.35931396484375E+0002	 3.09745689053551E-0005
 4.38422433035714E+0002	 2.11894136362024E-0005
 4.40913469587053E+0002	 1.08872131124237E-0005
 4.43404506138393E+0002	 4.57216306027837E-0006
 4.45895542689732E+0002	 1.35693401270992E-0005
 4.48386579241071E+0002	 2.46420347833438E-0005
 4.50877615792411E+0002	 3.54996389047455E-0005
 4.53368652343750E+0002	 4.56958981490288E-0005
 4.55859688895089E+0002	 5.49384550061158E-0005
 4.58350725446428E+0002	 6.30050852163212E-0005
 4.60841761997768E+0002	 6.97357190324069E-0005
 4.63332798549107E+0002	 7.50327416233042E-0005
 4.65823835100446E+0002	 7.88605801408930E-0005
 4.68314871651786E+0002	 8.12427475134856E-0005
 4.70805908203125E+0002	 8.22560753864374E-0005
 4.73296944754464E+0002	 8.20224032651017E-0005
 4.75787981305803E+0002	 8.06982504273804E-0005
 4.78279017857143E+0002	 7.84631465554936E-0005
 4.80770054408482E+0002	 7.55073816851672E-0005
 4.83261090959821E+0002	 7.20199731582750E-0005
 4.85752127511161E+0002	 6.81776457119774E-0005
 4.88243164062500E+0002	 6.41355832487720E-0005
 4.90734200613839E+0002	 6.00206304630857E-0005
 4.93225237165178E+0002	 5.59274824147921E-0005
 4.95716273716518E+0002	 5.19181815041693E-0005
 4.98207310267857E+0002	 4.80249436939439E-0005
 5.00698346819196E+0002	 4.42560007522280E-0005
 5.03189383370535E+0002	 4.06038617882708E-0005
 5.05680419921875E+0002	 3.70552723455810E-0005
 5.08171456473214E+0002	 3.36022512404019E-0005
 5.10662493024553E+0002	 3.02538885346465E-0005
 5.13153529575893E+0002	 2.70489082206420E-0005
 5.15644566127232E+0002	 2.40687903377572E-0005
 5.18135602678571E+0002	 2.14490094266249E-0005
 5.20626639229911E+0002	 1.93786367258316E-0005
 5.23117675781250E+0002	 1.80658342954070E-0005
 5.25608712332589E+0002	 1.76502080953096E-0005
 5.28099748883928E+0002	 1.81042754591240E-0005
 5.30590785435268E+0002	 1.92260272417387E-0005
 5.33081821986607E+0002	 2.07366062471551E-0005
 5.35572858537946E+0002	 2.23835767181021E-0005
 5.38063895089286E+0002	 2.39911898628433E-0005
 5.40554931640625E+0002	 2.54724771806472E-0005
 5.43045968191964E+0002	 2.68277388123554E-0005
 5.45537004743303E+0002	 2.81378640718033E-0005
 5.48028041294643E+0002	 2.95494569755467E-0005
 5.50519077845982E+0002	 3.12455604906298E-0005
 5.53010114397321E+0002	 3.34009809740859E-0005
 5.55501150948661E+0002	 3.61333011956088E-0005
 5.57992187500000E+0002	 3.94694678275056E-0005
 5.60483224051339E+0002	 4.33412670601861E-0005
 5.62974260602678E+0002	 4.76056737499969E-0005
 5.65465297154018E+0002	 5.20754277538127E-0005
 5.67956333705357E+0002	 5.65475957907806E-0005
 5.70447370256696E+0002	 6.08252951574890E-0005
 5.72938406808036E+0002	 6.47327112500788E-0005
 5.75429443359375E+0002	 6.81250200439387E-0005
 5.77920479910714E+0002	 7.08945858585858E-0005
 5.80411516462053E+0002	 7.29742143694677E-0005
 5.82902553013393E+0002	 7.43378067643122E-0005
 5.85393589564732E+0002	 7.49985443556628E-0005
 5.87884626116071E+0002	 7.50046740556263E-0005
 5.90375662667410E+0002	 7.44330084215137E-0005
 5.92866699218750E+0002	 7.33803754607419E-0005
 5.95357735770089E+0002	 7.19534532286290E-0005
 5.97848772321428E+0002	 7.02577047507780E-0005
 6.00339808872768E+0002	 6.83864610704764E-0005
 6.02830845424107E+0002	 6.64114911129156E-0005
 6.05321881975446E+0002	 6.43764870571039E-0005
 6.07812918526785E+0002	 6.22946219605910E-0005
 6.10303955078125E+0002	 6.01506642755203E-0005
 6.12794991629464E+0002	 5.79072418924029E-0005
 6.15286028180803E+0002	 5.55140883733973E-0005
 6.17777064732143E+0002	 5.29188067178654E-0005
 6.20268101283482E+0002	 5.00779741493825E-0005
 6.22759137834821E+0002	 4.69681811470154E-0005
 6.25250174386160E+0002	 4.35976641171013E-0005
 6.27741210937500E+0002	 4.00204346330201E-0005
 6.30232247488839E+0002	 3.63560802047697E-0005
 6.32723284040178E+0002	 3.28186605395790E-0005
 6.35214320591518E+0002	 2.97523319362457E-0005
 6.37705357142857E+0002	 2.76453422258471E-0005
 6.40196393694196E+0002	 2.70416932062103E-0005
 6.42687430245535E+0002	 2.82921591439070E-0005
 6.45178466796875E+0002	 3.13333089240427E-0005
 6.47669503348214E+0002	 3.57674919321020E-0005
 6.50160539899553E+0002	 4.11097927711556E-0005
 6.52651576450893E+0002	 4.69349558315494E-0005
 6.55142613002232E+0002	 5.29030443860413E-0005
 6.57633649553571E+0002	 5.87413193263780E-0005
 6.60124686104910E+0002	 6.42239645701035E-0005
 6.62615722656250E+0002	 6.91592125218428E-0005
 6.65106759207589E+0002	 7.33831204662878E-0005
 6.67597795758928E+0002	 7.67577022357002E-0005
 6.70088832310268E+0002	 7.91715728665222E-0005
 6.72579868861607E+0002	 8.05418568063521E-0005
 6.75070905412946E+0002	 8.08165275944946E-0005
 6.77561941964285E+0002	 7.99766126862609E-0005
 6.80052978515625E+0002	 7.80378730857497E-0005
 6.82544015066964E+0002	 7.50516995320422E-0005
 6.85035051618303E+0002	 7.11050842136604E-0005
 6.87526088169643E+0002	 6.63196484700123E-0005
 6.90017124720982E+0002	 6.08498473221169E-0005
 6.92508161272321E+0002	 5.48806429224012E-0005
 6.94999197823660E+0002	 4.86251415337510E-0005
 6.97490234375000E+0002	 4.23228644371923E-0005
 6.99981270926339E+0002	 3.62391793331765E-0005
 7.02472307477678E+0002	 3.06648813115512E-0005
 7.04963344029018E+0002	 2.59090063752818E-0005
 7.07454380580357E+0002	 2.22636826765950E-0005
 7.09945417131696E+0002	 1.99091519003537E-0005
 7.12436453683035E+0002	 1.87808726978881E-0005
 7.14927490234375E+0002	 1.85424561118155E-0005
 7.17418526785714E+0002	 1.87472509467156E-0005
 7.19909563337053E+0002	 1.90308659355453E-0005
 7.22400599888393E+0002	 1.91912234961654E-0005
 7.24891636439732E+0002	 1.91804085571703E-0005
 7.27382672991071E+0002	 1.90680978474946E-0005
 7.29873709542410E+0002	 1.89981329176309E-0005
 7.32364746093750E+0002	 1.91365021661002E-0005
 7.34855782645089E+0002	 1.96118787236172E-0005
 7.37346819196428E+0002	 2.04678791242206E-0005
 7.39837855747768E+0002	 2.16533657913369E-0005
 7.42328892299107E+0002	 2.30543752247919E-0005
 7.44819928850446E+0002	 2.45436882882440E-0005
 7.47310965401785E+0002	 2.60233229790079E-0005
 7.49802001953125E+0002	 2.74509934490371E-0005
 7.52293038504464E+0002	 2.88513924167162E-0005
 7.54784075055803E+0002	 3.03134520918348E-0005
 7.57275111607143E+0002	 3.19723338400842E-0005
 7.59766148158482E+0002	 3.39758443649009E-0005
 7.62257184709821E+0002	 3.64415545312452E-0005
 7.64748221261160E+0002	 3.94189122917528E-0005
 7.67239257812500E+0002	 4.28709231148721E-0005
 7.69730294363839E+0002	 4.66795378778625E-0005
 7.72221330915178E+0002	 5.06670323439895E-0005
 7.74712367466518E+0002	 5.46220765405236E-0005
 7.77203404017857E+0002	 5.83230259193454E-0005
 7.79694440569196E+0002	 6.15559891213605E-0005
 7.82185477120535E+0002	 6.41280205474760E-0005
 7.84676513671875E+0002	 6.58765048862879E-0005
 7.87167550223214E+0002	 6.66756019971224E-0005
 7.89658586774553E+0002	 6.64402656246791E-0005
 7.92149623325893E+0002	 6.51281153323695E-0005
 7.94640659877232E+0002	 6.27393693510451E-0005
 7.97131696428571E+0002	 5.93151183088325E-0005
 7.99622732979910E+0002	 5.49344396190273E-0005
 8.02113769531250E+0002	 4.97113041311960E-0005
 8.04604806082589E+0002	 4.37932031023758E-0005
 8.07095842633928E+0002	 3.73658326502794E-0005
 8.09586879185268E+0002	 3.06749454990833E-0005
 8.12077915736607E+0002	 2.40973045010882E-0005
 8.14568952287946E+0002	 1.83516401242435E-0005
 8.17059988839285E+0002	 1.49444285241654E-0005
 8.19551025390625E+0002	 1.57414599975151E-0005
 8.22042061941964E+0002	 2.03019073324167E-0005
 8.24533098493303E+0002	 2.67268161365025E-0005
 8.27024135044643E+0002	 3.38977379360662E-0005
 8.29515171595982E+0002	 4.13368482917428E-0005
 8.32006208147321E+0002	 4.88201115829718E-0005
 8.34497244698660E+0002	 5.62177974032526E-0005
 8.36988281250000E+0002	 6.34346211326533E-0005
 8.39479317801339E+0002	 7.03857767619955E-0005
 8.41970354352678E+0002	 7.69875297709192E-0005
 8.44461390904018E+0002	 8.31547990036781E-0005
 8.46952427455357E+0002	 8.88025135449595E-0005
 8.49443464006696E+0002	 9.38490145485020E-0005
 8.51934500558035E+0002	 9.82203602467304E-0005
 8.54425537109375E+0002	 1.01854700710640E-0004
 8.56916573660714E+0002	 1.04706109982238E-0004
 8.59407610212053E+0002	 1.06747452395548E-0004
 8.61898646763393E+0002	 1.07972029085521E-0004
 8.64389683314732E+0002	 1.08393899824633E-0004
 8.66880719866071E+0002	 1.08046902629742E-0004
 8.69371756417410E+0002	 1.06982497986612E-0004
 8.71862792968750E+0002	 1.05266645764684E-0004
 8.74353829520089E+0002	 1.02975980919565E-0004
 8.76844866071428E+0002	 1.00193588709809E-0004
 8.79335902622768E+0002	 9.70046908822740E-0005
 8.81826939174107E+0002	 9.34925405797723E-0005
 8.84317975725446E+0002	 8.97347858451001E-0005
 8.86809012276785E+0002	 8.58005018133869E-0005
 8.89300048828125E+0002	 8.17480156784190E-0005
 8.91791085379464E+0002	 7.76235661773136E-0005
 8.94282121930803E+0002	 7.34607641383352E-0005
 8.96773158482143E+0002	 6.92807669937880E-0005
 8.99264195033482E+0002	 6.50930590385339E-0005
 9.01755231584821E+0002	 6.08967434967858E-0005
 9.04246268136160E+0002	 5.66822944382142E-0005
 9.06737304687500E+0002	 5.24337697809965E-0005
 9.09228341238839E+0002	 4.81315327541288E-0005
 9.11719377790178E+0002	 4.37555593903678E-0005
 9.14210414341518E+0002	 3.92894388245737E-0005
 9.16701450892857E+0002	 3.47252617226564E-0005
 9.19192487444196E+0002	 3.00698971855579E-0005
 9.21683523995535E+0002	 2.53540993592155E-0005
 9.24174560546875E+0002	 2.06487291802272E-0005
 9.26665597098214E+0002	 1.61013344893301E-0005
 9.29156633649553E+0002	 1.20341482075077E-0005
 9.31647670200893E+0002	 9.18483459611142E-0006
 9.34138706752232E+0002	 8.73161519901733E-0006
 9.36629743303571E+0002	 1.07379764823619E-0005
 9.39120779854910E+0002	 1.38815234348135E-0005
 9.41611816406250E+0002	 1.72115465792656E-0005
 9.44102852957589E+0002	 2.02822070435992E-0005
 9.46593889508928E+0002	 2.28610030499000E-0005
 9.49084926060268E+0002	 2.48086754992614E-0005
 9.51575962611607E+0002	 2.60426432115841E-0005
 9.54066999162946E+0002	 2.65288128712759E-0005
 9.56558035714285E+0002	 2.62843789672642E-0005
 9.59049072265625E+0002	 2.53869970154191E-0005
 9.61540108816964E+0002	 2.39902435963083E-0005
 9.64031145368303E+0002	 2.23458695949085E-0005
 9.66522181919642E+0002	 2.08256371303662E-0005
 9.69013218470982E+0002	 1.99068994654644E-0005
 9.71504255022321E+0002	 2.00482245003817E-0005
 9.73995291573660E+0002	 2.14574675015153E-0005
 9.76486328125000E+0002	 2.39763428249244E-0005
 9.78977364676339E+0002	 2.72230133817352E-0005
 9.81468401227678E+0002	 3.07922467055802E-0005
 9.83959437779017E+0002	 3.43492136648780E-0005
 9.86450474330357E+0002	 3.76434718670792E-0005
 9.88941510881696E+0002	 4.04992894694437E-0005
 9.91432547433035E+0002	 4.28051667184592E-0005
 9.93923583984375E+0002	 4.45065493969114E-0005
 9.96414620535714E+0002	 4.56006522001972E-0005
 9.98905657087053E+0002	 4.61317974906191E-0005
 1.00139669363839E+0003	 4.61860451811907E-0005
 1.00388773018973E+0003	 4.58842380793657E-0005
 1.00637876674107E+0003	 4.53728326146713E-0005
